# wavelength (um) | emission flux (erg/s/cm^2/cm)
2.280045600410403051e+00 7.660081622164405518e+11
2.280050160501604140e+00 7.346349394794980469e+11
2.280054720601925045e+00 7.066813333335791016e+11
2.280059280711367098e+00 7.009930150723457031e+11
2.280063840829928079e+00 7.090077269985506592e+11
2.280068400957610208e+00 7.350617762935733643e+11
2.280072961094412154e+00 7.807745902957763672e+11
2.280077521240334804e+00 8.376690956801148682e+11
2.280082081395376825e+00 8.880121265562916260e+11
2.280086641559539995e+00 9.203149446470667725e+11
2.280091201732822981e+00 9.297744258452260742e+11
2.280095761915227115e+00 9.019345264115704346e+11
2.280100322106751065e+00 8.935251491610423584e+11
2.280104882307394831e+00 9.178889194608420410e+11
2.280109442517160190e+00 9.362324279780849609e+11
2.280114002736044920e+00 9.263411390821286621e+11
2.280118562964049911e+00 8.823987847938071289e+11
2.280123123201176050e+00 8.183448472380533447e+11
2.280127683447422893e+00 7.503246385635841064e+11
2.280132243702789996e+00 7.168169954093791504e+11
2.280136803967277803e+00 7.004034165487261963e+11
2.280141364240885871e+00 7.079487011826505127e+11
2.280145924523614198e+00 7.124153158261600342e+11
2.280150484815464118e+00 7.194256834614484863e+11
2.280155045116432966e+00 7.356808202906347656e+11
2.280159605426523850e+00 7.526582280592652588e+11
2.280164165745734994e+00 8.299957488861053467e+11
2.280168726074065955e+00 9.680784846139139404e+11
2.280173286411518951e+00 1.136736753204328857e+12
2.280177846758092208e+00 1.297270708970504395e+12
2.280182407113784837e+00 1.399234568099272705e+12
2.280186967478599946e+00 1.421435245473610596e+12
2.280191527852534872e+00 1.370918344967334229e+12
2.280196088235590945e+00 1.288096144561857910e+12
2.280200648627766835e+00 1.121996601131706055e+12
2.280205209029065205e+00 9.625043883496718750e+11
2.280209769439482947e+00 8.307660319180758057e+11
2.280214329859021838e+00 7.821715454604542236e+11
2.280218890287681877e+00 7.755170854686110840e+11
2.280223450725462175e+00 7.721625163346582031e+11
2.280228011172364067e+00 7.674631805063836670e+11
2.280232571628386218e+00 7.600838140707929688e+11
2.280237132093529961e+00 7.624431548872523193e+11
2.280241692567793965e+00 7.645119815251350098e+11
2.280246253051180005e+00 7.727105462976475830e+11
2.280250813543684973e+00 7.681716426581776123e+11
2.280255374045311978e+00 7.571160740443383789e+11
2.280259934556061019e+00 7.492581549651433105e+11
2.280264495075929876e+00 7.621708884379674072e+11
2.280269055604919881e+00 7.920812457974764404e+11
2.280273616143031923e+00 8.132481389181801758e+11
2.280278176690263781e+00 8.324252462499161377e+11
2.280282737246618119e+00 8.633742750933654785e+11
2.280287297812091829e+00 9.293557261114533691e+11
2.280291858386688020e+00 1.007269450875832764e+12
2.280296418970404915e+00 1.087676784261935791e+12
2.280300979563242958e+00 1.105881849502649902e+12
2.280305540165202149e+00 1.079992944087251953e+12
2.280310100776282045e+00 1.027558843260934326e+12
2.280314661396484865e+00 9.212462537523656006e+11
2.280319222025807946e+00 8.233246934454925537e+11
2.280323782664252175e+00 7.716795866658575439e+11
2.280328343311817108e+00 7.364676995188016357e+11
2.280332903968504077e+00 7.323903170964364014e+11
2.280337464634312195e+00 7.339199295466196289e+11
2.280342025309241016e+00 7.399562106270163574e+11
2.280346585993291875e+00 7.532829543445736084e+11
2.280351146686463881e+00 7.847107464087390137e+11
2.280355707388757924e+00 8.352040152067358398e+11
2.280360268100173116e+00 8.785750298106298828e+11
2.280364828820709011e+00 9.042195384474370117e+11
2.280369389550366055e+00 9.033482853079564209e+11
2.280373950289146023e+00 8.764427302067705078e+11
2.280378511037047140e+00 8.221960415743040771e+11
2.280383071794068961e+00 7.791899270307640381e+11
2.280387632560211930e+00 7.708423832095120850e+11
2.280392193335477824e+00 8.051919090672297363e+11
2.280396754119864866e+00 8.622861159844698486e+11
2.280401314913373056e+00 9.293118671670306396e+11
2.280405875716002839e+00 9.466010323973160400e+11
2.280410436527755103e+00 9.285941261021004639e+11
2.280414997348628070e+00 8.769076313667604980e+11
2.280419558178623074e+00 8.044562055573350830e+11
2.280424119017738782e+00 7.501329396723365479e+11
2.280428679865976971e+00 7.287864642337410889e+11
2.280433240723337196e+00 7.150901486410364990e+11
2.280437801589819014e+00 7.139379095859733887e+11
2.280442362465421979e+00 7.124420043072636719e+11
2.280446923350146982e+00 7.119074243329526367e+11
2.280451484243994020e+00 7.183707984222639160e+11
2.280456045146963096e+00 7.347889918359197998e+11
2.280460606059052875e+00 7.496621720355750732e+11
2.280465166980265135e+00 7.610339326446323242e+11
2.280469727910598987e+00 7.498677187499381104e+11
2.280474288850054876e+00 7.378586687655030518e+11
2.280478849798632801e+00 7.146076249036855469e+11
2.280483410756333207e+00 7.055702127041053467e+11
2.280487971723155205e+00 7.040103912341083984e+11
2.280492532699097907e+00 7.044540450490455322e+11
2.280497093684163978e+00 7.081076372247172852e+11
2.280501654678351198e+00 6.977011083650255127e+11
2.280506215681660009e+00 6.885562271210222168e+11
2.280510776694092190e+00 6.767251646300375977e+11
2.280515337715645963e+00 6.817429407642177734e+11
2.280519898746320884e+00 7.121254105893048096e+11
2.280524459786117841e+00 7.380463088070266113e+11
2.280529020835038168e+00 7.772088008277137451e+11
2.280533581893080086e+00 8.252468442078426514e+11
2.280538142960244041e+00 9.019142470369287109e+11
2.280542704036530033e+00 9.705911393739635010e+11
2.280547265121938061e+00 1.023248632690564941e+12
2.280551826216469014e+00 1.023582086963271484e+12
2.280556387320121114e+00 9.789601898324621582e+11
2.280560948432896140e+00 9.032545749693012695e+11
2.280565509554793202e+00 8.245004264271646729e+11
2.280570070685811856e+00 7.743981209019550781e+11
2.280574631825952991e+00 7.584740620197532959e+11
2.280579192975217051e+00 7.533683555685318604e+11
2.280583754133604035e+00 7.385998777164869385e+11
2.280588315301112168e+00 7.201259919584606934e+11
2.280592876477742781e+00 7.173627320661817627e+11
2.280597437663495874e+00 7.328383040090675049e+11
2.280601998858371005e+00 7.540510740427308350e+11
2.280606560062369059e+00 7.665211390579307861e+11
2.280611121275489150e+00 7.686864636559387207e+11
2.280615682497732166e+00 7.490867900914102783e+11
2.280620243729098107e+00 7.244192394132843018e+11
2.280624804969585195e+00 7.147014538544990234e+11
2.280629366219195209e+00 7.345399465788868408e+11
2.280633927477926814e+00 7.858061056837033691e+11
2.280638488745781789e+00 8.444029105747922363e+11
2.280643050022760132e+00 8.999714299248331299e+11
2.280647611308860956e+00 9.240274848049003906e+11
2.280652172604082928e+00 9.239372862187690430e+11
2.280656733908429157e+00 9.019548079622736816e+11
2.280661295221896978e+00 8.900518046148125000e+11
2.280665856544486836e+00 8.760325042617976074e+11
2.280670417876200951e+00 8.553428796445032959e+11
2.280674979217036213e+00 8.390449599829558105e+11
2.280679540566994845e+00 8.079808741176545410e+11
2.280684101926075957e+00 7.646964236153935547e+11
2.280688663294279994e+00 7.340919019168397217e+11
2.280693224671606956e+00 7.140871272239312744e+11
2.280697786058055954e+00 7.126227821444228516e+11
2.280702347453627876e+00 7.111746548786109619e+11
2.280706908858323168e+00 7.148923524198557129e+11
2.280711470272140939e+00 7.092319567327062988e+11
2.280716031695082080e+00 7.080584792022647705e+11
2.280720593127146145e+00 7.047969324510732422e+11
2.280725154568331803e+00 7.121863511447923584e+11
2.280729716018640829e+00 7.073610451579521484e+11
2.280734277478072780e+00 7.093201967771153564e+11
2.280738838946628988e+00 7.160292660609271240e+11
2.280743400424305900e+00 7.193910422171894531e+11
2.280747961911107957e+00 7.433586942935861816e+11
2.280752523407031163e+00 7.975596027790937500e+11
2.280757084912078181e+00 9.063463826017840576e+11
2.280761646426248124e+00 1.061407391268834473e+12
2.280766207949540991e+00 1.220505725563256836e+12
2.280770769481956783e+00 1.313700795696184814e+12
2.280775331023495944e+00 1.368274484702212646e+12
2.280779892574158030e+00 1.326740449617389160e+12
2.280784454133943040e+00 1.258904760243326904e+12
2.280789015702851863e+00 1.129269262067455322e+12
2.280793577280884055e+00 9.672019170131934814e+11
2.280798138868037839e+00 8.530942340298754883e+11
2.280802700464315880e+00 7.990381877247285156e+11
2.280807262069716845e+00 7.683706986960698242e+11
2.280811823684242068e+00 7.661170969902786865e+11
2.280816385307888883e+00 7.895042323204852295e+11
2.280820946940659955e+00 8.173777537917213135e+11
2.280825508582553951e+00 8.209407611197965088e+11
2.280830070233570872e+00 8.240186162179808350e+11
2.280834631893712050e+00 8.276776381209959717e+11
2.280839193562976153e+00 8.586334822707866211e+11
2.280843755241363180e+00 9.388432504036750488e+11
2.280848316928874020e+00 1.077548265668278442e+12
2.280852878625506897e+00 1.237792935001410156e+12
2.280857440331264918e+00 1.316312021912431641e+12
2.280862002046144976e+00 1.356399805593556641e+12
2.280866563770150179e+00 1.321755574888214111e+12
2.280871125503277863e+00 1.247377152905935791e+12
2.280875687245528916e+00 1.135873908262242676e+12
2.280880248996902893e+00 1.082823153089582642e+12
2.280884810757401127e+00 1.046352911883552246e+12
2.280889372527023173e+00 1.037921754513664795e+12
2.280893934305768145e+00 1.023555741582746582e+12
2.280898496093636929e+00 9.792191461277230225e+11
2.280903057890629082e+00 9.163969009129624023e+11
2.280907619696745048e+00 8.868123252674462891e+11
2.280912181511984826e+00 8.658045924070617676e+11
2.280916743336347974e+00 8.637938620107770996e+11
2.280921305169834046e+00 8.477706785965551758e+11
2.280925867012444819e+00 8.418922346013283691e+11
2.280930428864178960e+00 8.278123138500833740e+11
2.280934990725036915e+00 8.102286751239604492e+11
2.280939552595019126e+00 7.910274495640187988e+11
2.280944114474123818e+00 7.650855104833907471e+11
2.280948676362353211e+00 7.454404663632547607e+11
2.280953238259705973e+00 7.321947803172910156e+11
2.280957800166182992e+00 7.461391925093789062e+11
2.280962362081782935e+00 7.679144709822124023e+11
2.280966924006507135e+00 7.857180699060596924e+11
2.280971485940356036e+00 7.896596563142858887e+11
2.280976047883326974e+00 7.892146644563326416e+11
2.280980609835423945e+00 7.977061172212424316e+11
2.280985171796642952e+00 8.279107026965202637e+11
2.280989733766987104e+00 8.698774043804758301e+11
2.280994295746455069e+00 8.830635804397770996e+11
2.280998857735045959e+00 8.872179895386081543e+11
2.281003419732761994e+00 8.739795204446628418e+11
2.281007981739601842e+00 8.553789811172686768e+11
2.281012543755565947e+00 8.869803630736622314e+11
2.281017105780652976e+00 9.497973055345454102e+11
2.281021667814865150e+00 1.007962753616986206e+12
2.281026229858199805e+00 1.049221482322860352e+12
2.281030791910660049e+00 1.053406692575611206e+12
2.281035353972244106e+00 1.027566186393591675e+12
2.281039916042951976e+00 9.777203634909180908e+11
2.281044478122784103e+00 9.294340038660887451e+11
2.281049040211740042e+00 8.679317444856356201e+11
2.281053602309822015e+00 8.479821892491442871e+11
2.281058164417026024e+00 8.332797408435992432e+11
2.281062726533355178e+00 8.269500554619505615e+11
2.281067288658808145e+00 8.086571587303197021e+11
2.281071850793384925e+00 7.783887906272178955e+11
2.281076412937086850e+00 7.676326791083066406e+11
2.281080975089913032e+00 7.600254158017016602e+11
2.281085537251863027e+00 7.637381973568167725e+11
2.281090099422938167e+00 7.544742624439296875e+11
2.281094661603138007e+00 7.368174127344219971e+11
2.281099223792461217e+00 7.265502705522198486e+11
2.281103785990907795e+00 7.132806940076450195e+11
2.281108348198479963e+00 7.024246836448454590e+11
2.281112910415176831e+00 6.904790534169252930e+11
2.281117472640997956e+00 6.819859568172690430e+11
2.281122034875942894e+00 6.771241705848262939e+11
2.281126597120012978e+00 6.824670441004930420e+11
2.281131159373208206e+00 6.919177986136845703e+11
2.281135721635525915e+00 6.987182347681267090e+11
2.281140283906970101e+00 7.072805455955091553e+11
2.281144846187538100e+00 7.050258004796688232e+11
2.281149408477229912e+00 7.014691233710054932e+11
2.281153970776046869e+00 6.947110807119270020e+11
2.281158533083988971e+00 6.951622434161633301e+11
2.281163095401056218e+00 6.972695259640841064e+11
2.281167657727245945e+00 6.951020731271326904e+11
2.281172220062562150e+00 7.051487275375380859e+11
2.281176782407002168e+00 7.161567154386857910e+11
2.281181344760566887e+00 7.308764293057690430e+11
2.281185907123257195e+00 7.419733752242055664e+11
2.281190469495070872e+00 7.462534598333706055e+11
2.281195031876011026e+00 7.414822445755889893e+11
2.281199594266074104e+00 7.228937308263966064e+11
2.281204156665263216e+00 7.062982746596131592e+11
2.281208719073577029e+00 7.172241856550317383e+11
2.281213281491015099e+00 7.361549640419284668e+11
2.281217843917577870e+00 7.783761191276186523e+11
2.281222406353265786e+00 8.053494429117633057e+11
2.281226968798077959e+00 8.076056079322290039e+11
2.281231531252016165e+00 7.939209281020341797e+11
2.281236093715079072e+00 7.923444731455228271e+11
2.281240656187267124e+00 8.406778598123714600e+11
2.281245218668578989e+00 9.052979362482645264e+11
2.281249781159015999e+00 1.002170144482201050e+12
2.281254343658579042e+00 1.054552205054697021e+12
2.281258906167265899e+00 1.059037685099156494e+12
2.281263468685077900e+00 1.023531235492278931e+12
2.281268031212015934e+00 9.456975319756849365e+11
2.281272593748079114e+00 8.623843239087918701e+11
2.281277156293266106e+00 7.993497514570900879e+11
2.281281718847579132e+00 7.596853944255544434e+11
2.281286281411016859e+00 7.276296123200156250e+11
2.281290843983580174e+00 7.050762372391025391e+11
2.281295406565268191e+00 6.968541464187111816e+11
2.281299969156080909e+00 6.809606422553803711e+11
2.281304531756020104e+00 6.763602002891080322e+11
2.281309094365084000e+00 6.644518299303728027e+11
2.281313656983272153e+00 6.662142481410622559e+11
2.281318219610585896e+00 6.792687057247215576e+11
2.281322782247026115e+00 6.971344417819000244e+11
2.281327344892591036e+00 7.238933951980836182e+11
2.281331907547280213e+00 7.397703304542928467e+11
2.281336470211094980e+00 7.431716206076997070e+11
2.281341032884035780e+00 7.402494182843520508e+11
2.281345595566102169e+00 7.259656940693741455e+11
2.281350158257292815e+00 7.121801410227396240e+11
2.281354720957609938e+00 6.934284384908100586e+11
2.281359283667052207e+00 6.766349964630512695e+11
2.281363846385619176e+00 6.678393074218297119e+11
2.281368409113312179e+00 6.594395435209208984e+11
2.281372971850131215e+00 6.581420478215743408e+11
2.281377534596074952e+00 6.674523000095169678e+11
2.281382097351143834e+00 6.829366396718587646e+11
2.281386660115337861e+00 7.061763792046223145e+11
2.281391222888658810e+00 7.121055792206270752e+11
2.281395785671104015e+00 7.136066567131092529e+11
2.281400348462676142e+00 7.053358370237561035e+11
2.281404911263372970e+00 6.901627819378861084e+11
2.281409474073195831e+00 6.783502884978400879e+11
2.281414036892143837e+00 6.724652848643537598e+11
2.281418599720217877e+00 6.734053927698117676e+11
2.281423162557417950e+00 6.879898650282897949e+11
2.281427725403743167e+00 7.201795876194066162e+11
2.281432288259193975e+00 7.590284782232363281e+11
2.281436851123770815e+00 7.971340719361562500e+11
2.281441413997472800e+00 8.177889536900043945e+11
2.281445976880300819e+00 8.138082707256013184e+11
2.281450539772254871e+00 7.884726244911693115e+11
2.281455102673334956e+00 7.678176257670289307e+11
2.281459665583540186e+00 7.413560884476921387e+11
2.281464228502871006e+00 7.304723545825834961e+11
2.281468791431329191e+00 7.164014561197645264e+11
2.281473354368912076e+00 7.074273546125125732e+11
2.281477917315620996e+00 7.049338408498946533e+11
2.281482480271455060e+00 7.105355613431639404e+11
2.281487043236416046e+00 7.126697099656379395e+11
2.281491606210503065e+00 7.035483957065728760e+11
2.281496169193714785e+00 6.973843255342442627e+11
2.281500732186052982e+00 6.933366642705168457e+11
2.281505295187518101e+00 7.070380941511700439e+11
2.281509858198108809e+00 7.331559186583952637e+11
2.281514421217825994e+00 7.759292170971971436e+11
2.281518984246667880e+00 8.134799707623359375e+11
2.281523547284637132e+00 8.314166839558039551e+11
2.281528110331731085e+00 8.193219523078967285e+11
2.281532673387951959e+00 7.911462370916506348e+11
2.281537236453297979e+00 7.456815573316363525e+11
2.281541799527771808e+00 7.249243572481303711e+11
2.281546362611370782e+00 7.422971548224340820e+11
2.281550925704095789e+00 7.732497987081811523e+11
2.281555488805948162e+00 8.031711198583208008e+11
2.281560051916926124e+00 8.233509550103399658e+11
2.281564615037030119e+00 8.278318286885815430e+11
2.281569178166260148e+00 8.044190508330076904e+11
2.281573741304616210e+00 7.842357958747110596e+11
2.281578304452099193e+00 7.631555472872244873e+11
2.281582867608708209e+00 7.602964592298374023e+11
2.281587430774444147e+00 7.650713064810457764e+11
2.281591993949304786e+00 7.700447100293843994e+11
2.281596557133292791e+00 7.625898774077783203e+11
2.281601120326406829e+00 7.509469970364537354e+11
2.281605683528647788e+00 7.424599165447012939e+11
2.281610246740016112e+00 7.393045356496378174e+11
2.281614809960509138e+00 7.488295621209058838e+11
2.281619373190129085e+00 7.515778318851578369e+11
2.281623936428875954e+00 7.409518463829167480e+11
2.281628499676747968e+00 7.253335686113353271e+11
2.281633062933747791e+00 7.063625615969486084e+11
2.281637626199874092e+00 7.042081029669937744e+11
2.281642189475126870e+00 7.215396998920413818e+11
2.281646752759506125e+00 7.616629825434980469e+11
2.281651316053010969e+00 7.988512206864309082e+11
2.281655879355644068e+00 8.239414332892542725e+11
2.281660442667401867e+00 8.319567085208850098e+11
2.281665005988287920e+00 8.333983092053677979e+11
2.281669569318300006e+00 8.319336875872756348e+11
2.281674132657439014e+00 8.481813832958231201e+11
2.281678696005704055e+00 8.750352422768139648e+11
2.281683259363096017e+00 9.041596825616967773e+11
2.281687822729614901e+00 9.134828046798664551e+11
2.281692386105261150e+00 9.161617241325789795e+11
2.281696949490032988e+00 9.189607259957272949e+11
2.281701512883932192e+00 9.358051440351291504e+11
2.281706076286957874e+00 9.355635826439753418e+11
2.281710639699110921e+00 9.250488166538637695e+11
2.281715203120390001e+00 8.745546926369134521e+11
2.281719766550796891e+00 8.348746903025478516e+11
2.281724329990329814e+00 7.965591320552857666e+11
2.281728893438990990e+00 7.626704890674991455e+11
2.281733456896776868e+00 7.253180487202904053e+11
2.281738020363691000e+00 7.044332580082043457e+11
2.281742583839732053e+00 6.976375258139934082e+11
2.281747147324900027e+00 7.058610054662712402e+11
2.281751710819194034e+00 7.186711580161917725e+11
2.281756274322615852e+00 7.322379175696284180e+11
2.281760837835165034e+00 7.424050744755128174e+11
2.281765401356841139e+00 7.525717149373203125e+11
2.281769964887644164e+00 7.547091418547067871e+11
2.281774528427574111e+00 7.557991544877878418e+11
2.281779091976630980e+00 7.483785281944390869e+11
2.281783655534815214e+00 7.467118720674533691e+11
2.281788219102125037e+00 7.440170931915473633e+11
2.281792782678564002e+00 7.498585327470659180e+11
2.281797346264129889e+00 7.597550965914534912e+11
2.281801909858821809e+00 7.716206412917774658e+11
2.281806473462641982e+00 7.839146881921988525e+11
2.281811037075589077e+00 7.924395444735513916e+11
2.281815600697663982e+00 7.830629633010957031e+11
2.281820164328864919e+00 7.898076879106450195e+11
2.281824727969194111e+00 8.017106531653675537e+11
2.281829291618649780e+00 8.148484464476621094e+11
2.281833855277232814e+00 8.315521422243210449e+11
2.281838418944944102e+00 8.225692956811557617e+11
2.281842982621781868e+00 8.159227532987818604e+11
2.281847546307746999e+00 8.061139199622593994e+11
2.281852110002839940e+00 8.134521198554282227e+11
2.281856673707059802e+00 8.242756140636881104e+11
2.281861237420407917e+00 8.280107302136745605e+11
